# t(ms)	mean_x1	mean_x2
0	0.0603967	-0.202645
0.05	0.0285468	-0.225837
0.1	-0.0159955	-0.248858
0.15	-0.0582727	-0.271734
0.2	-0.100304	-0.294541
0.25	-0.129398	-0.317162
0.3	-0.174321	-0.339629
0.35	-0.204805	-0.361725
0.4	-0.236821	-0.383768
0.45	-0.26042	-0.405678
0.5	-0.291401	-0.427505
0.55	-0.319939	-0.449217
0.6	-0.349434	-0.470639
0.65	-0.375075	-0.492041
0.7	-0.396798	-0.513094
0.75	-0.404808	-0.534115
0.8	-0.429979	-0.554841
0.85	-0.449002	-0.575581
0.9	-0.459928	-0.59605
0.95	-0.460846	-0.616327
1	-0.463297	-0.636464
1.05	-0.458726	-0.656309
1.1	-0.455535	-0.676106
1.15	-0.452222	-0.695595
1.2	-0.44913	-0.714781
1.25	-0.45363	-0.733871
1.3	-0.441211	-0.752605
1.35	-0.440285	-0.77116
1.4	-0.437616	-0.789408
1.45	-0.438725	-0.807452
1.5	-0.412829	-0.825226
1.55	-0.391299	-0.842652
1.6	-0.385679	-0.859858
1.65	-0.396809	-0.876865
1.7	-0.378214	-0.893631
1.75	-0.356707	-0.910104
1.8	-0.350988	-0.926274
1.85	-0.34464	-0.942216
1.9	-0.339848	-0.95786
1.95	-0.34426	-0.973285
2	-0.334404	-0.988352
2.05	-0.324886	-1.00327
2.1	-0.317372	-1.01799
2.15	-0.304367	-1.0324
2.2	-0.281531	-1.04658
2.25	-0.28072	-1.06062
2.3	-0.283055	-1.07435
2.35	-0.276654	-1.08775
2.4	-0.266816	-1.10093
2.45	-0.230276	-1.11388
2.5	-0.219619	-1.12665
2.55	-0.219604	-1.13921
2.6	-0.21976	-1.15161
2.65	-0.221194	-1.16378
2.7	-0.194985	-1.17566
2.75	-0.174986	-1.1873
2.8	-0.156327	-1.19872
2.85	-0.135343	-1.20997
2.9	-0.131231	-1.22093
2.95	-0.12064	-1.23155
3	-0.123665	-1.24211
3.05	-0.0999094	-1.25232
3.1	-0.0778466	-1.26225
3.15	-0.0654012	-1.27216
3.2	-0.0412158	-1.28162
3.25	-0.034051	-1.29079
3.3	-0.0274864	-1.29968
3.35	-0.00851683	-1.3084
3.4	0.00814287	-1.31695
3.45	0.0365975	-1.3251
3.5	0.0641628	-1.33299
3.55	0.0960584	-1.34056
3.6	0.108988	-1.34795
3.65	0.129816	-1.35496
3.7	0.14976	-1.3617
3.75	0.175274	-1.36818
3.8	0.190469	-1.37432
3.85	0.211487	-1.38024
3.9	0.218808	-1.38579
3.95	0.228852	-1.39099
4	0.276549	-1.39603
4.05	0.301701	-1.40069
4.1	0.309963	-1.40513
4.15	0.323104	-1.40941
4.2	0.341919	-1.41333
4.25	0.353006	-1.41723
4.3	0.390406	-1.42082
4.35	0.411289	-1.42421
4.4	0.43948	-1.42733
4.45	0.471692	-1.43035
4.5	0.476087	-1.43312
4.55	0.493337	-1.43577
4.6	0.516305	-1.43825
4.65	0.524915	-1.44062
4.7	0.540301	-1.44279
4.75	0.547571	-1.4448
4.8	0.558702	-1.44681
4.85	0.569389	-1.44853
4.9	0.577477	-1.4501
4.95	0.584458	-1.4517
5	0.580933	-1.45313
5.05	0.574059	-1.4545
5.1	0.581974	-1.45567
5.15	0.56221	-1.45681
5.2	0.551102	-1.45788
5.25	0.519349	-1.45878
5.3	0.504254	-1.45968
5.35	0.481453	-1.46048
5.4	0.485723	-1.46125
5.45	0.459478	-1.46184
5.5	0.434754	-1.46242
5.55	0.393442	-1.46285
5.6	0.381157	-1.46335
5.65	0.34725	-1.46367
5.7	0.334137	-1.464
5.75	0.315884	-1.46425
5.8	0.283654	-1.46445
5.85	0.258239	-1.46454
5.9	0.224734	-1.46453
5.95	0.212433	-1.46461
6	0.179725	-1.46459
6.05	0.131083	-1.46463
6.1	0.0932466	-1.46458
6.15	0.0729712	-1.46445
6.2	0.0428509	-1.46434
6.25	0.0192194	-1.46417
6.3	-0.0085899	-1.46401
6.35	-0.0428759	-1.46377
6.4	-0.0681703	-1.46363
6.45	-0.0748703	-1.46341
6.5	-0.0886291	-1.46322
6.55	-0.116468	-1.4631
6.6	-0.137	-1.46292
6.65	-0.154442	-1.46287
6.7	-0.17286	-1.46278
6.75	-0.189933	-1.46268
6.8	-0.192758	-1.46259
6.85	-0.221625	-1.46255
6.9	-0.250373	-1.46259
6.95	-0.269071	-1.46249
7	-0.291349	-1.4624
7.05	-0.295682	-1.46238
7.1	-0.303999	-1.4624
7.15	-0.311137	-1.46234
7.2	-0.318203	-1.46249
7.25	-0.310685	-1.46251
7.3	-0.31561	-1.46257
7.35	-0.324518	-1.46263
7.4	-0.319839	-1.46268
7.45	-0.324074	-1.46283
7.5	-0.311793	-1.46292
7.55	-0.30624	-1.46314
7.6	-0.306623	-1.46328
7.65	-0.289086	-1.46338
7.7	-0.284775	-1.46359
7.75	-0.284984	-1.46379
7.8	-0.287215	-1.46395
7.85	-0.27324	-1.46415
7.9	-0.267702	-1.46433
7.95	-0.272786	-1.46448
8	-0.26966	-1.46481
8.05	-0.244098	-1.46508
8.1	-0.241746	-1.46531
8.15	-0.225387	-1.46547
8.2	-0.215742	-1.46574
8.25	-0.193481	-1.46593
8.3	-0.174642	-1.4663
8.35	-0.16564	-1.46659
8.4	-0.14692	-1.46678
8.45	-0.133316	-1.46693
8.5	-0.141506	-1.46712
8.55	-0.142099	-1.4673
8.6	-0.116281	-1.46743
8.65	-0.100523	-1.46763
8.7	-0.0737343	-1.4678
8.75	-0.0526682	-1.46796
8.8	-0.0318763	-1.46806
8.85	-0.00106102	-1.46807
8.9	0.0186254	-1.46806
8.95	0.0486087	-1.46795
9	0.0794441	-1.4679
9.05	0.0946415	-1.46774
9.1	0.120049	-1.4674
9.15	0.124619	-1.4671
9.2	0.144795	-1.4666
9.25	0.173102	-1.46615
9.3	0.190888	-1.4655
9.35	0.211385	-1.46483
9.4	0.241727	-1.46398
9.45	0.277917	-1.46313
9.5	0.297625	-1.4622
9.55	0.341182	-1.4613
9.6	0.356176	-1.46033
9.65	0.396885	-1.45919
9.7	0.408797	-1.45809
9.75	0.443331	-1.45687
9.8	0.475017	-1.4557
9.85	0.519094	-1.45446
9.9	0.541142	-1.45316
9.95	0.571605	-1.45184
10	0.590171	-1.45036
10.05	0.616161	-1.44897
10.1	0.628133	-1.44748
10.15	0.639503	-1.44593
10.2	0.643636	-1.44436
10.25	0.64756	-1.4428
10.3	0.642212	-1.4412
10.35	0.628568	-1.43959
10.4	0.61402	-1.43797
10.45	0.606515	-1.43636
10.5	0.588812	-1.43469
10.55	0.542688	-1.43307
10.6	0.536414	-1.43137
10.65	0.498541	-1.42965
10.7	0.447955	-1.42806
10.75	0.42866	-1.42634
10.8	0.398079	-1.42468
10.85	0.376368	-1.4229
10.9	0.335327	-1.42127
10.95	0.306159	-1.41959
11	0.277142	-1.41796
11.05	0.23876	-1.41627
11.1	0.205757	-1.4146
11.15	0.186079	-1.41286
11.2	0.165904	-1.41116
11.25	0.123647	-1.40948
11.3	0.0679801	-1.40779
11.35	0.0308329	-1.40618
11.4	0.00498503	-1.40459
11.45	-0.0162238	-1.40312
11.5	-0.044687	-1.4017
11.55	-0.0712542	-1.40024
11.6	-0.104421	-1.39881
11.65	-0.119299	-1.39755
11.7	-0.140182	-1.39628
11.75	-0.1788	-1.39514
11.8	-0.211812	-1.39387
11.85	-0.230138	-1.39276
11.9	-0.258864	-1.39167
11.95	-0.270595	-1.39055
12	-0.299419	-1.38959
12.05	-0.310749	-1.3886
12.1	-0.321208	-1.38772
12.15	-0.339718	-1.38676
12.2	-0.348714	-1.38589
12.25	-0.367389	-1.38511
12.3	-0.368135	-1.38432
12.35	-0.362228	-1.38362
12.4	-0.372959	-1.38301
12.45	-0.378684	-1.38241
12.5	-0.392451	-1.38176
12.55	-0.389481	-1.38127
12.6	-0.397763	-1.38075
12.65	-0.408392	-1.38036
12.7	-0.403811	-1.37992
12.75	-0.390778	-1.37956
12.8	-0.380846	-1.37926
12.85	-0.391755	-1.37898
12.9	-0.392615	-1.37872
12.95	-0.387115	-1.37858
13	-0.377521	-1.37834
13.05	-0.387846	-1.37818
13.1	-0.371321	-1.37805
13.15	-0.35665	-1.37783
13.2	-0.352582	-1.37784
13.25	-0.331743	-1.37781
13.3	-0.32793	-1.37781
13.35	-0.317146	-1.3777
13.4	-0.294404	-1.37779
13.45	-0.285025	-1.37778
13.5	-0.280343	-1.37788
13.55	-0.278399	-1.37806
13.6	-0.269601	-1.37828
13.65	-0.276973	-1.37839
13.7	-0.273358	-1.37862
13.75	-0.271669	-1.37884
13.8	-0.253227	-1.37914
13.85	-0.235279	-1.37953
13.9	-0.229138	-1.37984
13.95	-0.222085	-1.38013
14	-0.217269	-1.38036
14.05	-0.199227	-1.38075
14.1	-0.189309	-1.38107
14.15	-0.17004	-1.38142
14.2	-0.150509	-1.38179
14.25	-0.150968	-1.38214
14.3	-0.161128	-1.38262
14.35	-0.151479	-1.38293
14.4	-0.138533	-1.38327
14.45	-0.141076	-1.3837
14.5	-0.120667	-1.38405
14.55	-0.101356	-1.38447
14.6	-0.0882553	-1.38469
14.65	-0.0759508	-1.38502
14.7	-0.0631871	-1.38539
14.75	-0.0346632	-1.38563
14.8	-0.0208822	-1.38581
14.85	0.00153854	-1.38597
14.9	0.0211984	-1.38609
14.95	0.0450516	-1.38625
15	0.0683756	-1.38624
15.05	0.0741497	-1.38618
15.1	0.0784608	-1.38604
15.15	0.117942	-1.38585
15.2	0.14743	-1.38555
15.25	0.169772	-1.38513
15.3	0.199317	-1.38471
15.35	0.211459	-1.38414
15.4	0.24405	-1.38334
15.45	0.271898	-1.38257
15.5	0.303358	-1.38174
15.55	0.336303	-1.38075
15.6	0.381398	-1.37964
15.65	0.414466	-1.37855
15.7	0.456894	-1.37743
15.75	0.472737	-1.37618
15.8	0.52654	-1.37487
15.85	0.561075	-1.37347
15.9	0.590464	-1.37202
15.95	0.627222	-1.3706
16	0.657028	-1.36905
16.05	0.698348	-1.36752
16.1	0.728922	-1.36595
16.15	0.773614	-1.36435
16.2	0.79818	-1.36259
16.25	0.829467	-1.36078
16.3	0.854159	-1.35904
16.35	0.884381	-1.3573
16.4	0.907964	-1.35548
16.45	0.928076	-1.35356
16.5	0.936074	-1.3516
16.55	0.946355	-1.3497
16.6	0.962378	-1.34773
16.65	0.963856	-1.34582
16.7	0.966941	-1.34386
16.75	0.949057	-1.34191
16.8	0.928067	-1.33966
16.85	0.903778	-1.3376
16.9	0.859326	-1.33555
16.95	0.820322	-1.33343
17	0.776677	-1.33129
17.05	0.713453	-1.32907
17.1	0.665124	-1.32704
17.15	0.603939	-1.32492
17.2	0.538157	-1.32275
17.25	0.441899	-1.32054
17.3	0.337899	-1.31834
17.35	0.227234	-1.31615
17.4	0.123895	-1.31393
17.45	0.0138274	-1.31172
17.5	-0.0957338	-1.30955
17.55	-0.203933	-1.30731
17.6	-0.294553	-1.30527
17.65	-0.394549	-1.30317
17.7	-0.490348	-1.30112
17.75	-0.544691	-1.29923
17.8	-0.586767	-1.29726
17.85	-0.613923	-1.29555
17.9	-0.643298	-1.29364
17.95	-0.686263	-1.29183
18	-0.696727	-1.29009
18.05	-0.681868	-1.2883
18.1	-0.68635	-1.28663
18.15	-0.692945	-1.28504
18.2	-0.696423	-1.28339
18.25	-0.722257	-1.28182
18.3	-0.715253	-1.28026
18.35	-0.717601	-1.27877
18.4	-0.727723	-1.27725
18.45	-0.719139	-1.2757
18.5	-0.718687	-1.27433
18.55	-0.735975	-1.27296
18.6	-0.733087	-1.27168
18.65	-0.740127	-1.27032
18.7	-0.722673	-1.269
18.75	-0.727684	-1.26776
18.8	-0.73181	-1.26646
18.85	-0.712445	-1.26517
18.9	-0.722025	-1.26391
18.95	-0.715734	-1.2626
19	-0.720219	-1.26131
19.05	-0.71959	-1.26007
19.1	-0.704614	-1.25891
19.15	-0.686501	-1.25785
19.2	-0.660016	-1.25675
19.25	-0.650025	-1.25575
19.3	-0.643697	-1.25472
19.35	-0.636772	-1.25376
19.4	-0.651989	-1.25273
19.45	-0.646823	-1.25181
19.5	-0.650764	-1.25088
19.55	-0.656313	-1.24984
19.6	-0.647427	-1.24883
19.65	-0.641877	-1.24792
19.7	-0.64266	-1.24706
19.75	-0.631946	-1.24625
19.8	-0.635031	-1.24531
19.85	-0.610772	-1.24455
19.9	-0.606552	-1.24367
19.95	-0.598957	-1.24287
20	-0.601725	-1.24201
20.05	-0.585424	-1.2411
20.1	-0.575982	-1.24032
20.15	-0.564192	-1.23962
20.2	-0.552203	-1.23901
20.25	-0.559113	-1.23836
20.3	-0.558702	-1.23772
20.35	-0.555937	-1.23701
20.4	-0.540146	-1.23638
20.45	-0.549627	-1.23566
20.5	-0.540611	-1.23504
20.55	-0.531639	-1.23442
20.6	-0.527509	-1.23379
20.65	-0.517679	-1.23313
20.7	-0.497519	-1.23256
20.75	-0.492469	-1.23206
20.8	-0.493099	-1.23153
20.85	-0.47277	-1.23095
20.9	-0.472801	-1.2305
20.95	-0.479821	-1.23005
21	-0.47131	-1.22954
21.05	-0.460513	-1.22912
21.1	-0.447459	-1.22862
21.15	-0.448737	-1.22808
21.2	-0.445658	-1.22756
21.25	-0.428602	-1.22719
21.3	-0.422093	-1.22684
21.35	-0.425241	-1.22634
21.4	-0.429668	-1.2259
21.45	-0.432093	-1.22547
21.5	-0.413074	-1.22498
21.55	-0.420407	-1.22461
21.6	-0.426159	-1.22434
21.65	-0.411245	-1.2239
21.7	-0.402052	-1.22344
21.75	-0.386292	-1.22307
21.8	-0.390914	-1.22271
21.85	-0.384877	-1.22236
21.9	-0.381509	-1.22197
21.95	-0.372463	-1.22165
22	-0.368179	-1.22131
22.05	-0.361036	-1.22102
22.1	-0.358576	-1.2206
22.15	-0.351836	-1.22023
22.2	-0.32741	-1.21992
22.25	-0.313772	-1.2195
22.3	-0.29703	-1.21914
22.35	-0.300021	-1.21873
22.4	-0.287252	-1.2184
22.45	-0.286214	-1.21811
22.5	-0.275229	-1.21775
22.55	-0.276017	-1.21744
22.6	-0.262943	-1.21713
22.65	-0.265601	-1.21682
22.7	-0.227469	-1.21644
22.75	-0.216552	-1.216
22.8	-0.205513	-1.2156
22.85	-0.189265	-1.21517
22.9	-0.189867	-1.21473
22.95	-0.191257	-1.21439
23	-0.187426	-1.21387
23.05	-0.171601	-1.21342
23.1	-0.145926	-1.21297
23.15	-0.123188	-1.21251
23.2	-0.127277	-1.21205
23.25	-0.127029	-1.21147
23.3	-0.100607	-1.21086
23.35	-0.0978638	-1.21019
23.4	-0.0993053	-1.20951
23.45	-0.0696084	-1.20886
23.5	-0.0630285	-1.20813
23.55	-0.0364659	-1.20737
23.6	-0.0238785	-1.20662
23.65	-0.00665797	-1.20573
23.7	0.0282045	-1.20472
23.75	0.054588	-1.20382
23.8	0.0713707	-1.20267
23.85	0.109133	-1.20143
23.9	0.140838	-1.20007
23.95	0.170315	-1.19851
24	0.202201	-1.19684
24.05	0.246598	-1.19498
24.1	0.275564	-1.19314
24.15	0.317791	-1.19109
24.2	0.336755	-1.18898
24.25	0.350459	-1.18675
24.3	0.382354	-1.18435
24.35	0.396162	-1.18183
24.4	0.422858	-1.1793
24.45	0.444053	-1.17679
24.5	0.450445	-1.17409
24.55	0.488104	-1.17129
24.6	0.509134	-1.16825
24.65	0.527442	-1.16517
24.7	0.521574	-1.16209
24.75	0.508264	-1.15893
24.8	0.513494	-1.15576
24.85	0.507644	-1.1524
24.9	0.51569	-1.14905
24.95	0.516255	-1.14564
25	0.513552	-1.1421
25.05	0.516581	-1.13858
25.1	0.516076	-1.13514
25.15	0.501907	-1.13166
25.2	0.506364	-1.12802
25.25	0.484491	-1.1244
25.3	0.470583	-1.12081
25.35	0.458752	-1.11707
25.4	0.448543	-1.1134
25.45	0.428292	-1.10964
25.5	0.414184	-1.10581
25.55	0.393568	-1.10198
25.6	0.373142	-1.09809
25.65	0.349804	-1.09419
25.7	0.322857	-1.09022
25.75	0.314018	-1.0863
25.8	0.306525	-1.08227
25.85	0.283082	-1.07825
25.9	0.27135	-1.0742
25.95	0.257021	-1.07008
26	0.236502	-1.06598
26.05	0.201305	-1.06179
26.1	0.182525	-1.0577
26.15	0.177586	-1.05357
26.2	0.151922	-1.04947
26.25	0.11583	-1.04517
26.3	0.0841206	-1.04089
26.35	0.0414681	-1.03661
26.4	0.00797579	-1.03248
26.45	-0.0262179	-1.02822
26.5	-0.0567506	-1.02394
26.55	-0.0916363	-1.01976
26.6	-0.128191	-1.01562
26.65	-0.138072	-1.01138
26.7	-0.161759	-1.00716
26.75	-0.182858	-1.00291
26.8	-0.206269	-0.998634
26.85	-0.230564	-0.994495
26.9	-0.242253	-0.990261
26.95	-0.262224	-0.986051
27	-0.286269	-0.981963
27.05	-0.300714	-0.977806
27.1	-0.308814	-0.973685
27.15	-0.313291	-0.969488
27.2	-0.335393	-0.965297
27.25	-0.350502	-0.961061
27.3	-0.366413	-0.956931
27.35	-0.386198	-0.952748
27.4	-0.386925	-0.94858
27.45	-0.38338	-0.944412
27.5	-0.373369	-0.940199
27.55	-0.40558	-0.935879
27.6	-0.416396	-0.931671
27.65	-0.425929	-0.927515
27.7	-0.42083	-0.923236
27.75	-0.40269	-0.918977
27.8	-0.387191	-0.914825
27.85	-0.38197	-0.910519
27.9	-0.3983	-0.906156
27.95	-0.393026	-0.901841
28	-0.410336	-0.897471
28.05	-0.410141	-0.893153
28.1	-0.408941	-0.888812
28.15	-0.396278	-0.884509
28.2	-0.376789	-0.880089
28.25	-0.369894	-0.875699
28.3	-0.378774	-0.871368
28.35	-0.353338	-0.86688
28.4	-0.352607	-0.862368
28.45	-0.337765	-0.858059
28.5	-0.323985	-0.85338
28.55	-0.309384	-0.848775
28.6	-0.302139	-0.844316
28.65	-0.286293	-0.83969
28.7	-0.274461	-0.835041
28.75	-0.257986	-0.830322
28.8	-0.257377	-0.825549
28.85	-0.24769	-0.820786
28.9	-0.226626	-0.816014
28.95	-0.188382	-0.811172
29	-0.17735	-0.806413
29.05	-0.181738	-0.801491
29.1	-0.180551	-0.796459
29.15	-0.167545	-0.791338
29.2	-0.158152	-0.786145
29.25	-0.143746	-0.78091
29.3	-0.116324	-0.775678
29.35	-0.0901911	-0.770425
29.4	-0.0813455	-0.7651
29.45	-0.0710816	-0.759718
29.5	-0.0549682	-0.754132
29.55	-0.0425563	-0.74852
29.6	-0.0266453	-0.742774
29.65	-0.00942208	-0.737048
29.7	0.00526636	-0.73116
29.75	0.00681302	-0.725115
29.8	0.0243636	-0.719153
29.85	0.0326986	-0.712995
29.9	0.069325	-0.70666
29.95	0.093196	-0.700163
30	0.110478	-0.693647
30.05	0.127104	-0.687009
30.1	0.145029	-0.680187
30.15	0.162722	-0.673283
30.2	0.186982	-0.666266
30.25	0.2129	-0.659086
30.3	0.223001	-0.651833
30.35	0.250617	-0.644397
30.4	0.269732	-0.63682
30.45	0.290947	-0.629135
30.5	0.333584	-0.62118
30.55	0.343236	-0.613187
30.6	0.369455	-0.605015
30.65	0.385976	-0.596773
30.7	0.408031	-0.588348
30.75	0.431184	-0.579836
30.8	0.46207	-0.571097
30.85	0.498246	-0.562304
30.9	0.523989	-0.553317
30.95	0.55303	-0.544244
31	0.576081	-0.535105
31.05	0.585544	-0.525648
31.1	0.628986	-0.516139
31.15	0.638477	-0.506483
31.2	0.65898	-0.496805
31.25	0.671493	-0.486815
31.3	0.692165	-0.476699
31.35	0.702896	-0.466424
31.4	0.717638	-0.456102
31.45	0.729388	-0.445549
31.5	0.717949	-0.434903
31.55	0.719636	-0.424091
31.6	0.710499	-0.413262
31.65	0.675927	-0.402207
31.7	0.648272	-0.390998
31.75	0.60579	-0.379618
31.8	0.555258	-0.368078
31.85	0.48435	-0.356412
31.9	0.425311	-0.344638
31.95	0.355573	-0.332718
32	0.293626	-0.320604
32.05	0.234518	-0.308201
32.1	0.159709	-0.295788
32.15	0.11394	-0.283294
32.2	0.044637	-0.270598
32.25	-0.00988326	-0.257766
32.3	-0.0730766	-0.244871
32.35	-0.117616	-0.231796
32.4	-0.161962	-0.218675
32.45	-0.184577	-0.205418
32.5	-0.223504	-0.192152
32.55	-0.25909	-0.178703
32.6	-0.290984	-0.165286
32.65	-0.315616	-0.151767
32.7	-0.345206	-0.138162
32.75	-0.367394	-0.124568
32.8	-0.37997	-0.111086
32.85	-0.390711	-0.0974931
32.9	-0.400996	-0.08397
32.95	-0.40626	-0.0704214
33	-0.417605	-0.0569469
33.05	-0.440147	-0.0436007
33.1	-0.448457	-0.0303445
33.15	-0.449464	-0.0170595
33.2	-0.473846	-0.00388746
33.25	-0.48086	0.00916957
33.3	-0.490674	0.0222082
33.35	-0.488556	0.0351132
33.4	-0.503491	0.0480378
33.45	-0.513137	0.0608348
33.5	-0.495604	0.0735789
33.55	-0.49357	0.0862254
33.6	-0.506357	0.0988
33.65	-0.50876	0.111281
33.7	-0.521626	0.123769
33.75	-0.53647	0.136279
33.8	-0.539507	0.148543
33.85	-0.530568	0.16091
33.9	-0.529903	0.173227
33.95	-0.534791	0.185512
34	-0.508281	0.197882
34.05	-0.510073	0.21016
34.1	-0.506684	0.22245
34.15	-0.509908	0.234625
34.2	-0.505091	0.246869
34.25	-0.508827	0.259074
34.3	-0.522229	0.271206
34.35	-0.513536	0.283411
34.4	-0.517607	0.295585
34.45	-0.519455	0.307605
34.5	-0.519502	0.319819
34.55	-0.515667	0.331857
34.6	-0.496613	0.343818
34.65	-0.508707	0.355773
34.7	-0.518588	0.367493
34.75	-0.504804	0.379271
34.8	-0.493686	0.390958
34.85	-0.497096	0.402569
34.9	-0.499878	0.414066
34.95	-0.497667	0.425539
35	-0.488053	0.436949
35.05	-0.473825	0.448282
35.1	-0.487592	0.459444
35.15	-0.486246	0.470501
35.2	-0.47457	0.481422
35.25	-0.48265	0.492286
35.3	-0.486409	0.503042
35.35	-0.48626	0.513644
35.4	-0.487253	0.524106
35.45	-0.493835	0.534426
35.5	-0.4873	0.544736
35.55	-0.471281	0.554815
35.6	-0.456492	0.564802
35.65	-0.444584	0.574685
35.7	-0.442336	0.584438
35.75	-0.436851	0.594137
35.8	-0.429642	0.603554
35.85	-0.408004	0.612899
35.9	-0.403145	0.622129
35.95	-0.419572	0.631169
36	-0.421872	0.640039
36.05	-0.411652	0.648795
36.1	-0.427839	0.657414
36.15	-0.416275	0.665812
36.2	-0.420041	0.674077
36.25	-0.411117	0.682334
36.3	-0.418157	0.690284
36.35	-0.419212	0.698092
36.4	-0.390913	0.705853
36.45	-0.389564	0.713335
36.5	-0.405617	0.720792
36.55	-0.387396	0.728032
36.6	-0.384501	0.735047
36.65	-0.385814	0.741972
36.7	-0.392501	0.748683
36.75	-0.400042	0.755258
36.8	-0.383314	0.761771
36.85	-0.365328	0.768165
36.9	-0.357286	0.774363
36.95	-0.364014	0.780322
37	-0.358282	0.786065
37.05	-0.355082	0.791748
37.1	-0.334891	0.797336
37.15	-0.324226	0.802666
37.2	-0.313221	0.807884
37.25	-0.312378	0.812884
37.3	-0.298708	0.817832
37.35	-0.306372	0.822609
37.4	-0.289737	0.827189
37.45	-0.276013	0.83166
37.5	-0.267292	0.835944
37.55	-0.264152	0.839963
37.6	-0.264326	0.843939
37.65	-0.251919	0.847744
37.7	-0.25624	0.851465
37.75	-0.25843	0.854971
37.8	-0.261788	0.858401
37.85	-0.248972	0.86161
37.9	-0.260554	0.864672
37.95	-0.255669	0.867612
38	-0.244794	0.870506
38.05	-0.23978	0.873152
38.1	-0.240094	0.875674
38.15	-0.234783	0.877969
38.2	-0.240713	0.880175
38.25	-0.219913	0.882118
38.3	-0.204388	0.883985
38.35	-0.186065	0.885737
38.4	-0.200284	0.887321
38.45	-0.199892	0.888717
38.5	-0.194945	0.890125
38.55	-0.20621	0.891192
38.6	-0.207329	0.892165
38.65	-0.203983	0.893064
38.7	-0.176015	0.893734
38.75	-0.166345	0.894256
38.8	-0.169016	0.894704
38.85	-0.152616	0.894906
38.9	-0.147606	0.894968
38.95	-0.16351	0.89489
39	-0.138155	0.894706
39.05	-0.145005	0.894317
39.1	-0.126306	0.893821
39.15	-0.126169	0.893229
39.2	-0.122002	0.892518
39.25	-0.121666	0.891584
39.3	-0.123291	0.890507
39.35	-0.101268	0.889379
39.4	-0.100658	0.888159
39.45	-0.104767	0.886743
39.5	-0.0995733	0.885233
39.55	-0.105973	0.883542
39.6	-0.0956168	0.881736
39.65	-0.0834547	0.879827
39.7	-0.0643765	0.877681
39.75	-0.0623148	0.87544
39.8	-0.064774	0.872968
39.85	-0.0699077	0.870492
39.9	-0.0588677	0.867879
39.95	-0.0540359	0.865134
40	-0.0347921	0.86229
40.05	-0.0368446	0.859267
40.1	-0.0333902	0.856159
40.15	-0.0242751	0.852883
40.2	-0.0172547	0.849485
40.25	-0.000277622	0.84593
40.3	0.0131322	0.842271
40.35	0.0115426	0.838621
40.4	0.0359708	0.834816
40.45	0.0597139	0.830802
40.5	0.0691053	0.826811
40.55	0.0817978	0.822449
40.6	0.10034	0.818109
40.65	0.110321	0.813693
40.7	0.126675	0.809079
40.75	0.124651	0.80448
40.8	0.134864	0.799658
40.85	0.115798	0.794748
40.9	0.123846	0.789759
40.95	0.138001	0.784636
41	0.153058	0.779475
41.05	0.164303	0.774232
41.1	0.165886	0.768928
41.15	0.163479	0.763525
41.2	0.177769	0.75795
41.25	0.181895	0.75228
41.3	0.190532	0.746667
41.35	0.191161	0.740996
41.4	0.189209	0.735148
41.45	0.199761	0.729392
41.5	0.190986	0.723482
41.55	0.188718	0.717522
41.6	0.18968	0.711585
41.65	0.192514	0.70556
